Latitude,PPFD,FvFm_mean,qP,qL,NPQ,phiPSII,phiNPQ,phiNO_new
32.284182,95.874,0.547045576,0.899258488,0.832813419,0.204243671,0.453008637,0.090358314,0.457381827
32.284182,166.4185,0.546423493,0.864754565,0.784321642,0.32515406,0.414726557,0.140283153,0.444166654
32.284182,236.963,0.54742339,0.802921026,0.707051053,0.470785206,0.366440196,0.197846612,0.433581608
32.284182,307.5075,0.547603229,0.728990003,0.623711407,0.601478533,0.319406445,0.248888297,0.427537543
32.284182,378.052,0.547671901,0.658974592,0.551262775,0.719933671,0.279447036,0.293429568,0.421514065
32.284182,448.5965,0.547714529,0.590474169,0.484587053,0.814406936,0.244134686,0.330124387,0.418721156
32.284182,519.141,0.547966386,0.5431121,0.443389583,0.926477782,0.217371914,0.366647039,0.407867271
32.284182,589.6855,0.548728772,0.496423297,0.400916674,0.975763074,0.197369389,0.385839483,0.407864356
32.284182,660.23,0.548729566,0.466905507,0.375169265,1.021183603,0.183590747,0.400506715,0.40529743
32.284182,730.7745,0.548329318,0.448076434,0.35809389,1.065703397,0.173881031,0.413493974,0.401437088
32.284182,871.8635,0.548709916,0.416616736,0.332855154,1.13874278,0.158977982,0.433823509,0.394452836
32.284182,1012.9525,0.548651187,0.397576895,0.316902649,1.173883012,0.149908864,0.443936553,0.391999806
32.284182,1154.0415,0.549295217,0.393242492,0.31385839,1.205454691,0.147950425,0.450036361,0.387724738
32.284182,1295.1305,0.548513314,0.391376077,0.311724702,1.220242448,0.145976183,0.452472412,0.385960168
32.284182,1436.2195,0.548497411,0.368341911,0.292228679,1.229296151,0.137207278,0.457637035,0.388064768
32.284182,95.874,0.491120442,0.814755165,0.732694625,0.183465535,0.371103035,0.093180336,0.537353569
32.284182,166.4185,0.488191842,0.790060515,0.705393606,0.24161725,0.348873783,0.119981256,0.527825033
32.284182,236.963,0.489578239,0.749915487,0.660796244,0.324793563,0.32121372,0.158032852,0.51394625
32.284182,307.5075,0.489668661,0.707161352,0.615865553,0.405014792,0.294273973,0.191539226,0.50246794
32.284182,378.052,0.489672703,0.6618223,0.570356492,0.482499935,0.267912934,0.223094339,0.492822428
32.284182,448.5965,0.492306698,0.615979907,0.524063651,0.551898159,0.245066898,0.250516013,0.485944034
32.284182,519.141,0.491191087,0.589731459,0.501538941,0.610642229,0.228902599,0.271096802,0.477521108
32.284182,589.6855,0.49227764,0.562098117,0.473941398,0.63361132,0.217411284,0.280397269,0.47793214
32.284182,660.23,0.492373387,0.541308415,0.45340288,0.652890948,0.208176367,0.287940353,0.477831845
32.284182,730.7745,0.493571671,0.513447214,0.427273289,0.680757552,0.19628153,0.298814776,0.476801921
32.284182,871.8635,0.492780591,0.491113415,0.405791758,0.697257795,0.186534245,0.305646651,0.47814068
32.284182,1012.9525,0.49327195,0.467920805,0.383792457,0.708883058,0.177403871,0.309292538,0.479899928
32.284182,1154.0415,0.494032949,0.451573964,0.36795013,0.706495244,0.171837145,0.309413517,0.483936911
32.284182,1295.1305,0.495802148,0.450031806,0.365944483,0.706594064,0.171215536,0.308482821,0.483959647
32.284182,1436.2195,0.494133217,0.418132688,0.335808206,0.6846693,0.159628661,0.305968607,0.496849153
32.284182,95.874,0.567935692,0.839412035,0.744226857,0.266047754,0.432022568,0.11389435,0.447147715
32.284182,166.4185,0.565712831,0.791315943,0.691321093,0.401199612,0.387054631,0.167539259,0.434800641
32.284182,236.963,0.563136572,0.739751064,0.638102971,0.560022781,0.342467849,0.224675513,0.419052981
32.284182,307.5075,0.563717093,0.691736214,0.589395297,0.69090691,0.308732249,0.268424671,0.406961111
32.284182,378.052,0.563000571,0.646070803,0.543273902,0.780465814,0.280686155,0.297418908,0.401663394
32.284182,448.5965,0.563783104,0.614141738,0.513306519,0.84155825,0.262969757,0.317404893,0.397864035
32.284182,519.141,0.562534858,0.577704998,0.479663821,0.905644304,0.242779358,0.339128979,0.394524835
32.284182,589.6855,0.563522825,0.5563855,0.459186388,0.930847489,0.232647929,0.347857886,0.394625808
32.284182,660.23,0.562765681,0.526027537,0.429270654,0.930279746,0.220306298,0.351743191,0.400957355
32.284182,730.7745,0.563174534,0.513422495,0.418032349,0.941549659,0.214251343,0.356769777,0.401359807
32.284182,871.8635,0.562749588,0.491576035,0.39610076,0.950602295,0.204476726,0.361564924,0.40476654
32.284182,1012.9525,0.562797922,0.480974846,0.386104775,0.944956155,0.200521923,0.361153427,0.407840031
32.284182,1154.0415,0.561817789,0.456745059,0.363356163,0.924310238,0.1906226,0.360587933,0.416705035
32.284182,1295.1305,0.561748675,0.458284382,0.364548248,0.927204403,0.191187209,0.359984354,0.415953119
32.284182,1436.2195,0.561064276,0.441959591,0.348288339,0.908814269,0.184611493,0.356663975,0.423103486
32.284182,95.874,0.500110361,0.801934846,0.716905321,0.204002176,0.369695242,0.101666948,0.516834006
32.284182,166.4185,0.498628487,0.771444367,0.682551191,0.282022105,0.342727161,0.137086014,0.503712439
32.284182,236.963,0.497923993,0.73621865,0.6454623,0.381882685,0.313426779,0.179486821,0.488511392
32.284182,307.5075,0.497461529,0.698104855,0.606838466,0.47291299,0.287019659,0.215067615,0.476310954
32.284182,378.052,0.496311179,0.650444171,0.558640699,0.542857775,0.260361369,0.244258698,0.472130577
32.284182,448.5965,0.49815545,0.606251027,0.51533726,0.604256866,0.238662007,0.269131206,0.467777368
32.284182,519.141,0.496195785,0.587566069,0.499928096,0.665143193,0.225422025,0.289282904,0.458311218
32.284182,589.6855,0.497570257,0.561337652,0.473414074,0.680069598,0.215252968,0.296854412,0.460581809
32.284182,660.23,0.495882224,0.526923619,0.441616603,0.696947747,0.200290575,0.306412577,0.464278545
32.284182,730.7745,0.494343509,0.520320846,0.435930613,0.704576935,0.196257486,0.30937237,0.464509888
32.284182,871.8635,0.495288714,0.489969097,0.405976251,0.713197941,0.185181464,0.314977686,0.469065514
32.284182,1012.9525,0.493441526,0.485174372,0.402603939,0.704383873,0.182726575,0.310919248,0.472246964
32.284182,1154.0415,0.493119189,0.461919527,0.381266606,0.720524397,0.1731663,0.318825146,0.473352832
32.284182,1295.1305,0.493746066,0.457124785,0.375585567,0.703615623,0.17207315,0.313527804,0.478688423
32.284182,1436.2195,0.49253046,0.441148138,0.359877617,0.686784558,0.166325808,0.31196462,0.486611991
30.70123,95.874,0.543436796,0.86965442,0.798994308,0.238819539,0.430981536,0.106270148,0.458900077
30.70123,166.4185,0.54325068,0.861018862,0.786433646,0.368814027,0.405323908,0.154324773,0.434695897
30.70123,236.963,0.541437709,0.795143392,0.712523055,0.626306478,0.341306424,0.243706159,0.406229786
30.70123,307.5075,0.54103218,0.737095673,0.651950051,0.860014672,0.294332551,0.311244458,0.381017873
30.70123,378.052,0.542584727,0.649216599,0.562136649,1.071744468,0.245540997,0.372143634,0.365423052
30.70123,448.5965,0.543766413,0.612013905,0.528045596,1.223867859,0.223580548,0.407282911,0.350996144
30.70123,519.141,0.543737155,0.563997892,0.483718668,1.334758442,0.201199569,0.433691806,0.34386901
30.70123,589.6855,0.543765439,0.539129896,0.461048368,1.40917943,0.188499094,0.450445888,0.338274611
30.70123,660.23,0.544604632,0.508202119,0.431519558,1.472162051,0.175905703,0.465388374,0.334811514
30.70123,730.7745,0.544476834,0.494893345,0.419228274,1.501347642,0.169947372,0.47146637,0.333230887
30.70123,871.8635,0.544837211,0.469184484,0.395676302,1.562889092,0.159299797,0.484849476,0.32955836
30.70123,1012.9525,0.543575725,0.465194993,0.394389648,1.604636453,0.155616925,0.491528587,0.325651726
30.70123,95.874,0.494376052,0.830792678,0.748410837,0.153355691,0.387170246,0.076554212,0.541741572
30.70123,166.4185,0.491683456,0.79746788,0.706921689,0.212988808,0.360225164,0.105606441,0.537106289
30.70123,236.963,0.491201905,0.727591187,0.630072177,0.297956328,0.318833717,0.147707232,0.532469391
30.70123,307.5075,0.49150431,0.673141597,0.575321873,0.380703785,0.287047742,0.184529206,0.522740835
30.70123,378.052,0.495788471,0.598442181,0.497974166,0.457440691,0.251017177,0.219750934,0.519048001
30.70123,448.5965,0.495927579,0.574787633,0.477404115,0.511111844,0.236500028,0.24010886,0.509464472
30.70123,519.141,0.496898791,0.551547265,0.455074592,0.555139934,0.223418109,0.258047248,0.50338495
30.70123,589.6855,0.496740785,0.51499806,0.420816271,0.587719012,0.20688389,0.27215484,0.503215382
30.70123,660.23,0.499907621,0.489141226,0.397042852,0.616664875,0.195909955,0.283406262,0.500539455
30.70123,730.7745,0.499446033,0.478045646,0.386834941,0.628090755,0.190595275,0.288317819,0.500035289
30.70123,871.8635,0.502515707,0.445658878,0.357198112,0.651097224,0.177802446,0.298473146,0.500748045
30.70123,1012.9525,0.500886286,0.440853601,0.353353514,0.668153135,0.173920243,0.302719561,0.497703798
39.026,95.874,0.513827729,0.762303248,0.658982525,0.171693493,0.367135135,0.08791142,0.537242852
39.026,166.4185,0.508627844,0.72383298,0.617302233,0.209458395,0.339951072,0.108720912,0.544024534
39.026,236.963,0.503967033,0.683076214,0.576662416,0.265206245,0.310468765,0.136622,0.542887451
39.026,307.5075,0.503353292,0.641978226,0.536000229,0.319468423,0.284911061,0.162669216,0.538965703
39.026,378.052,0.502656095,0.59838993,0.494242682,0.364854094,0.261434038,0.185810696,0.537968013
39.026,448.5965,0.502022163,0.577876441,0.475409717,0.392004468,0.248963683,0.198706237,0.535691212
39.026,519.141,0.500881979,0.560084907,0.458643757,0.404492451,0.239883532,0.205199948,0.5375235
39.026,589.6855,0.501078905,0.542675216,0.442121109,0.419973442,0.230061504,0.212843277,0.537289772
39.026,660.23,0.502100652,0.52163462,0.421091837,0.424744069,0.222036259,0.216660197,0.541424505
39.026,730.7745,0.500801192,0.5083494,0.410025992,0.424098698,0.215872571,0.217664877,0.545794438
39.026,871.8635,0.501868796,0.484005696,0.385976795,0.437163026,0.204439573,0.225025298,0.548658127
39.026,1012.9525,0.501595751,0.469760892,0.372343973,0.433351676,0.198586979,0.225570239,0.553033785
39.026,1154.0415,0.502089376,0.456148654,0.358878772,0.42479036,0.193322393,0.223501148,0.560152168
39.026,1295.1305,0.501611333,0.439349028,0.342504829,0.422176942,0.186023078,0.223216679,0.566329343
39.026,1436.2195,0.503927881,0.425636815,0.330117589,0.409771743,0.182038582,0.219943975,0.573886675
39.026,95.874,0.554377215,0.759647839,0.640821028,0.185023559,0.395165828,0.090274726,0.501072745
39.026,166.4185,0.551734322,0.729086821,0.611334198,0.224829687,0.371732934,0.109877672,0.50376207
39.026,236.963,0.547517357,0.694457588,0.575565541,0.271473224,0.345484859,0.132300154,0.505681039
39.026,307.5075,0.546270687,0.676305959,0.558334945,0.310668459,0.330673183,0.15036657,0.502049716
39.026,378.052,0.543442652,0.640292924,0.523085883,0.352126154,0.307014911,0.170740106,0.504041807
39.026,448.5965,0.544353651,0.623610041,0.50770469,0.379488757,0.296351745,0.183453057,0.501521462
39.026,519.141,0.542916124,0.621044491,0.508146561,0.406947348,0.291225861,0.194060006,0.494767896
39.026,589.6855,0.543030647,0.595024726,0.482421803,0.43272734,0.276378223,0.206835555,0.495867341
39.026,660.23,0.543403499,0.581193368,0.469187391,0.444296894,0.26853878,0.212381725,0.497163061
39.026,730.7745,0.543218907,0.561041416,0.449774693,0.4534953,0.258151078,0.218887579,0.500292735
39.026,871.8635,0.543682354,0.532802488,0.423679261,0.483321233,0.243326884,0.232581,0.500445716
39.026,1012.9525,0.541827264,0.521572542,0.413897551,0.497788594,0.23591611,0.238494852,0.50024799
39.026,1154.0415,0.540721176,0.510020496,0.402140097,0.497667707,0.229306072,0.24002968,0.504235716
39.026,1295.1305,0.541814651,0.496131577,0.39136729,0.506511166,0.22312883,0.245131709,0.505402069
39.026,1436.2195,0.541898829,0.48405025,0.378699075,0.490938384,0.218978099,0.240966165,0.513295675
39.026,95.874,0.501500442,0.842456452,0.759436004,0.136839548,0.400915901,0.068821586,0.534308719
39.026,166.4185,0.501107577,0.792461733,0.697921,0.216641789,0.365201377,0.10629421,0.524184077
39.026,236.963,0.497851008,0.715603055,0.616330784,0.363428423,0.310040791,0.170302065,0.509136331
39.026,307.5075,0.496624948,0.644186318,0.546407336,0.505366085,0.265251195,0.226735991,0.491298173
39.026,378.052,0.498903806,0.600432359,0.506280959,0.617302262,0.239426865,0.26557813,0.473076329
39.026,448.5965,0.499171613,0.548787408,0.457257881,0.692517568,0.214740656,0.293182725,0.467039417
39.026,519.141,0.50104181,0.509395538,0.421335157,0.755179856,0.196027016,0.315595577,0.460501089
39.026,589.6855,0.501867593,0.501263126,0.414580702,0.790084705,0.191036073,0.324707258,0.454322765
39.026,660.23,0.503663425,0.47955962,0.394887773,0.824076258,0.181920938,0.336516222,0.450885141
39.026,730.7745,0.504751764,0.458284804,0.374684372,0.844302839,0.173414958,0.343575554,0.45057901
39.026,871.8635,0.501497726,0.462304942,0.381010411,0.871609227,0.171520474,0.350410015,0.444739795
39.026,1012.9525,0.503181455,0.442017446,0.362280925,0.892547952,0.163182693,0.357179208,0.443963336
39.026,1154.0415,0.502661442,0.414247651,0.335306961,0.890850122,0.152411327,0.36062367,0.450028677
39.026,1295.1305,0.501454004,0.425335037,0.347370431,0.896840535,0.156467155,0.359386945,0.446967426
39.026,1436.2195,0.502023147,0.412644922,0.334321534,0.898388584,0.151339155,0.361157009,0.448764376
39.026,95.874,0.587732412,0.767817227,0.640616764,0.194856168,0.423557264,0.090098127,0.465873484
39.026,166.4185,0.584046558,0.75825641,0.631372549,0.221822304,0.410955526,0.101792089,0.464367271
39.026,236.963,0.582135571,0.7172115,0.587131273,0.265718877,0.381392728,0.123106475,0.470314751
39.026,307.5075,0.579103662,0.678590656,0.548941869,0.323254116,0.35259967,0.149291178,0.47213924
39.026,378.052,0.576681031,0.670456437,0.544727981,0.36563787,0.340798217,0.165979735,0.465118454
39.026,448.5965,0.575300274,0.644153202,0.519190289,0.39315964,0.323281048,0.179203969,0.468306975
39.026,519.141,0.573625116,0.608934523,0.486655216,0.435868388,0.300652016,0.198616876,0.470006337
39.026,589.6855,0.573320258,0.602387976,0.481169443,0.457813158,0.294987658,0.207099398,0.467061008
39.026,660.23,0.571560273,0.5781902,0.459766003,0.467424428,0.281469056,0.213787329,0.472476812
39.026,730.7745,0.572326613,0.553723308,0.432979156,0.49031959,0.267920593,0.224646465,0.475513997
39.026,871.8635,0.57121416,0.548923089,0.43216702,0.507512844,0.263406823,0.230293321,0.472505431
39.026,1012.9525,0.570461542,0.52509636,0.410117297,0.519008507,0.250562904,0.237524219,0.477179835
39.026,1154.0415,0.568318495,0.504977162,0.388407645,0.501992549,0.240814673,0.235463156,0.489618048
39.026,1295.1305,0.568419965,0.498331314,0.383559363,0.519173882,0.236496954,0.241375205,0.486805116
39.026,1436.2195,0.569381992,0.486627985,0.37363045,0.518689458,0.231734306,0.24169686,0.489833767
44.99013,95.874,0.586563364,0.856183742,0.758752969,0.175108344,0.473529784,0.076663924,0.441626972
44.99013,166.4185,0.583108921,0.82560932,0.719761282,0.249530278,0.441054862,0.108549297,0.442769596
44.99013,236.963,0.581927439,0.795484869,0.683343346,0.354477024,0.408084876,0.149808689,0.433888551
44.99013,307.5075,0.581749509,0.736884691,0.619057859,0.467932068,0.364406565,0.195446959,0.429519879
44.99013,378.052,0.582079343,0.688758943,0.571346726,0.58065466,0.329133987,0.237016941,0.420909123
44.99013,448.5965,0.581345709,0.645559893,0.53062184,0.682956455,0.299428256,0.272993544,0.413144382
44.99013,519.141,0.581125145,0.602266975,0.48933169,0.758286831,0.273355203,0.300314817,0.410085661
44.99013,589.6855,0.582066004,0.591826233,0.483602744,0.840126366,0.262762734,0.322671569,0.39783454
44.99013,660.23,0.580785918,0.55900345,0.453770415,0.893815293,0.243817656,0.341856816,0.396137501
44.99013,730.7745,0.5806387,0.536014851,0.43380599,0.953740139,0.230164435,0.35904553,0.391001424
44.99013,871.8635,0.581157968,0.512688102,0.414478607,1.023127065,0.216553352,0.378386663,0.384591438
44.99013,95.874,0.629521307,0.859095228,0.741983703,0.177555483,0.510628582,0.071003948,0.407645987
44.99013,166.4185,0.625100673,0.833929427,0.711886111,0.237308605,0.48218385,0.095802124,0.411479772
44.99013,236.963,0.620535402,0.800903677,0.67393259,0.315167325,0.448191259,0.127368112,0.412465944
44.99013,307.5075,0.618668065,0.762087465,0.63247131,0.423068457,0.410796395,0.167720963,0.406609153
44.99013,378.052,0.617241175,0.710057948,0.580108726,0.555670723,0.367595269,0.21595853,0.399825845
44.99013,448.5965,0.616968487,0.691450677,0.566377432,0.664983834,0.347134794,0.248349083,0.386593696
44.99013,519.141,0.616781564,0.63972266,0.516794389,0.763379726,0.31328523,0.282662236,0.38376285
44.99013,589.6855,0.617405087,0.637012329,0.519256404,0.855438804,0.304744415,0.304566435,0.36994469
44.99013,660.23,0.616006381,0.597367656,0.480017038,0.910482003,0.280871562,0.32524753,0.371418707
44.99013,730.7745,0.616316701,0.580076923,0.466295301,0.977707573,0.268509764,0.342802576,0.365412794
44.99013,871.8635,0.615543017,0.559041427,0.450193959,1.051838228,0.253672575,0.362790839,0.359169745
44.99013,95.874,0.601811068,0.847056416,0.738121526,0.201580916,0.475889429,0.084823622,0.430402497
44.99013,166.4185,0.600693876,0.819208555,0.702604772,0.270900324,0.447822264,0.113652872,0.432632988
44.99013,236.963,0.595700305,0.760739322,0.637861567,0.408207741,0.393705979,0.168434799,0.427901644
44.99013,307.5075,0.594367622,0.717929155,0.599211888,0.556334746,0.355134434,0.220236223,0.412295895
44.99013,378.052,0.594260982,0.652251392,0.535811724,0.678361315,0.312391197,0.265663401,0.406737224
44.99013,448.5965,0.593573747,0.626375549,0.512665448,0.770013257,0.292074391,0.294268638,0.397772861
44.99013,519.141,0.592892968,0.592950446,0.482687979,0.833087068,0.270997721,0.315892654,0.394447815
44.99013,589.6855,0.592684006,0.577117401,0.470337655,0.897185146,0.25922568,0.334245472,0.38774242
44.99013,660.23,0.593315622,0.555870193,0.448867464,0.919050446,0.248598517,0.343665225,0.388589867
44.99013,730.7745,0.593190943,0.544531605,0.440451465,0.959344969,0.240656176,0.355056615,0.384319565
44.99013,871.8635,0.591680298,0.513362773,0.410749852,0.975022846,0.22507832,0.363367316,0.38888772
44.99013,95.874,0.575780127,0.818695814,0.706830938,0.19350726,0.440021809,0.086554827,0.469202491
44.99013,166.4185,0.571480253,0.789563671,0.674950349,0.245127307,0.413225385,0.110540603,0.472510205
44.99013,236.963,0.567707331,0.740157298,0.62101942,0.332697086,0.37322572,0.148240064,0.469931215
44.99013,307.5075,0.565981396,0.695312183,0.57912396,0.434644941,0.338892494,0.189901889,0.460172532
44.99013,378.052,0.566941959,0.655553406,0.538694087,0.511767478,0.312042097,0.220644612,0.454093398
44.99013,448.5965,0.565070975,0.621424838,0.508086288,0.565580171,0.28976188,0.241961525,0.451743258
44.99013,519.141,0.565420794,0.598444973,0.488016039,0.622233466,0.274847213,0.262394205,0.444428551
44.99013,589.6855,0.564887628,0.583559835,0.4748498,0.66104959,0.263950355,0.276559658,0.440825772
44.99013,660.23,0.563812175,0.565766968,0.458690344,0.690072061,0.253279186,0.287018491,0.439412826
44.99013,730.7745,0.565731254,0.556099651,0.45086741,0.720792334,0.247361568,0.297484469,0.434656401
44.99013,871.8635,0.564883258,0.526388165,0.423363942,0.738830695,0.232557655,0.307140098,0.438301013
34.09004,95.874,0.564156349,0.896726374,0.823159186,0.211781753,0.465878873,0.091337851,0.44145311
34.09004,166.4185,0.563921655,0.86293611,0.780259555,0.367130932,0.422560094,0.152421997,0.421998238
34.09004,236.963,0.563500331,0.812018169,0.722016669,0.579179561,0.369261786,0.227317827,0.398897638
34.09004,307.5075,0.562096379,0.734532297,0.638683773,0.783952854,0.312882586,0.296287934,0.384352525
34.09004,378.052,0.56190655,0.669759291,0.574577425,0.942273836,0.272479957,0.34605362,0.373448897
34.09004,448.5965,0.562359029,0.618877607,0.527246052,1.07875185,0.242635467,0.385807793,0.363107519
34.09004,519.141,0.562732312,0.572213858,0.48162325,1.159624471,0.220255441,0.410436297,0.360034887
34.09004,589.6855,0.562840489,0.542849451,0.455510666,1.232626601,0.205140707,0.429945726,0.354973739
34.09004,660.23,0.56242208,0.515274114,0.428774985,1.262946101,0.193130622,0.440211708,0.355524213
34.09004,730.7745,0.562201801,0.487882729,0.403967969,1.302804605,0.180654783,0.452387556,0.354475118
34.09004,871.8635,0.562855253,0.452709736,0.370603917,1.336617407,0.166455617,0.464643341,0.355446025
34.09004,95.874,0.471116634,0.704308064,0.616999898,0.293306145,0.293858532,0.152037393,0.539186689
34.09004,166.4185,0.46685008,0.665131566,0.5795778,0.374648618,0.265044932,0.189967252,0.527881155
34.09004,236.963,0.469206475,0.654085081,0.570365999,0.445029303,0.254459118,0.217223229,0.509234303
34.09004,307.5075,0.468553031,0.628416333,0.545534908,0.485935359,0.240413321,0.235154586,0.504496326
34.09004,378.052,0.468152605,0.615761963,0.534186368,0.525403076,0.23176917,0.249516209,0.497322497
34.09004,448.5965,0.465800387,0.605183958,0.524619821,0.557753836,0.223156741,0.262104338,0.492610907
34.09004,519.141,0.467042565,0.591257393,0.511797046,0.574956277,0.217138013,0.268743176,0.490489004
34.09004,589.6855,0.467741968,0.582555382,0.502626908,0.585836283,0.21364026,0.273216163,0.490133426
34.09004,660.23,0.467456349,0.568540415,0.488351665,0.594179617,0.207669737,0.277274381,0.491247554
34.09004,730.7745,0.46733982,0.562386249,0.482848774,0.587720577,0.205606274,0.275878262,0.493820323
34.09004,871.8635,0.467013938,0.544233355,0.464655959,0.581462781,0.198475653,0.277085357,0.49981953
34.09004,95.874,0.439323841,0.738236609,0.661337177,0.302912689,0.281811228,0.159154803,0.561010974
34.09004,166.4185,0.434890581,0.698274173,0.621949252,0.374406246,0.256067534,0.192806277,0.549425038
34.09004,236.963,0.435087126,0.659680436,0.582324542,0.430996644,0.236649469,0.218957617,0.541345496
34.09004,307.5075,0.433654645,0.620485232,0.54376658,0.465321242,0.219508683,0.236754178,0.539591677
34.09004,378.052,0.434045436,0.604973322,0.528902229,0.495205627,0.211241965,0.249289943,0.533472702
34.09004,448.5965,0.433803993,0.569768011,0.493499076,0.499062838,0.199798814,0.254291411,0.539771028
34.09004,519.141,0.4349367,0.567476915,0.492159156,0.513742134,0.197587031,0.259402656,0.535024191
34.09004,589.6855,0.434428972,0.551171783,0.476068395,0.522466814,0.191643976,0.264188571,0.536159528
34.09004,660.23,0.436426327,0.530637696,0.455105469,0.526817959,0.184814114,0.266863322,0.538530842
34.09004,730.7745,0.435348401,0.513733209,0.437470997,0.527618526,0.178965518,0.268680663,0.542675996
34.09004,871.8635,0.43713141,0.500299822,0.425941827,0.536513249,0.173513235,0.273573555,0.541599088
34.09004,95.874,0.470638228,0.763365201,0.68132448,0.270535159,0.318874734,0.138889051,0.539512906
34.09004,166.4185,0.465395574,0.723311372,0.639189107,0.339781109,0.290882257,0.171667876,0.532197553
34.09004,236.963,0.464888032,0.694425544,0.609145737,0.390413855,0.273107982,0.194564123,0.524226832
34.09004,307.5075,0.463651195,0.653310151,0.568012028,0.426741976,0.253545892,0.212554903,0.523901379
34.09004,378.052,0.464457766,0.643944399,0.560995236,0.477578921,0.245159957,0.232585127,0.511757966
34.09004,448.5965,0.46365543,0.594478464,0.508690738,0.493989929,0.225022757,0.243394548,0.519295159
34.09004,519.141,0.462375315,0.589107195,0.506595788,0.503453825,0.221510349,0.247289535,0.517707287
34.09004,589.6855,0.464319017,0.572511166,0.488868125,0.520460997,0.214809097,0.254752929,0.516697204
34.09004,660.23,0.465069721,0.552374068,0.468473475,0.522268601,0.207766647,0.258047067,0.520384187
34.09004,730.7745,0.463766231,0.54064959,0.457115506,0.525578501,0.201109925,0.260656497,0.522614782
34.09004,871.8635,0.46398814,0.523347087,0.440223274,0.528120855,0.195815234,0.262453982,0.525692778
27.471427,95.874,0.549846454,0.837184674,0.749114096,0.254086043,0.418584901,0.114340954,0.452967509
27.471427,166.4185,0.551879055,0.824794263,0.738612801,0.367929891,0.396851607,0.157938125,0.431158948
27.471427,236.963,0.551501893,0.790347131,0.701354983,0.500407646,0.362763137,0.205672113,0.41537545
27.471427,307.5075,0.55286069,0.740815148,0.650045042,0.669825185,0.322521184,0.26261706,0.398108643
27.471427,378.052,0.554159751,0.698946687,0.607694017,0.81371431,0.291596023,0.306905544,0.383888513
27.471427,448.5965,0.553602016,0.674014913,0.584961565,0.933040822,0.271409923,0.338822443,0.371347338
27.471427,519.141,0.554245723,0.622513056,0.535309897,1.052034665,0.242637976,0.373737809,0.363817955
27.471427,589.6855,0.553599745,0.598138445,0.511949683,1.125279377,0.228313488,0.391597146,0.358291361
27.471427,660.23,0.554670414,0.584245504,0.500587991,1.196295697,0.219919238,0.408215299,0.351109196
27.471427,730.7745,0.554680538,0.554161197,0.4716915,1.248094863,0.205294809,0.422504752,0.349197752
27.471427,95.874,0.500067833,0.825335486,0.749815772,0.330489463,0.357409261,0.153599589,0.484434282
27.471427,166.4185,0.501299388,0.800703686,0.725169939,0.464422869,0.330000918,0.204326528,0.459056319
27.471427,236.963,0.497474835,0.764040734,0.688685253,0.612560534,0.295510386,0.257234336,0.437896851
27.471427,307.5075,0.49649632,0.705296882,0.628800578,0.772175331,0.257730312,0.31050147,0.419170685
27.471427,378.052,0.495164603,0.662512413,0.587041067,0.893717856,0.231947861,0.34801575,0.405886084
27.471427,448.5965,0.495262185,0.625203687,0.552122899,0.9996085,0.212355181,0.377742239,0.39425301
27.471427,519.141,0.495252132,0.581829559,0.510029715,1.096415193,0.19246528,0.404551858,0.386015904
27.471427,589.6855,0.495393175,0.568243945,0.497318037,1.14012957,0.186294437,0.41442855,0.381272976
27.471427,660.23,0.49641322,0.545957974,0.476429592,1.188690939,0.1765797,0.425897868,0.376770404
27.471427,730.7745,0.496387436,0.52226454,0.452576628,1.197142403,0.168601913,0.430470502,0.378943149
27.471427,95.874,0.612898638,0.898695474,0.81803197,0.255824562,0.504905362,0.099148878,0.394789042
27.471427,166.4185,0.614463401,0.881927381,0.796650571,0.424551789,0.469962758,0.155617458,0.374787064
27.471427,236.963,0.613797566,0.839848965,0.748811168,0.696365458,0.412069853,0.236928767,0.349434784
27.471427,307.5075,0.612651342,0.778866819,0.684770532,0.984550063,0.353057964,0.314157852,0.32840527
27.471427,378.052,0.613205258,0.711184544,0.615088317,1.226961976,0.30522313,0.374053235,0.314088472
27.471427,448.5965,0.613490155,0.660400248,0.568399852,1.450194762,0.26905685,0.422299465,0.299614752
27.471427,519.141,0.613533921,0.615021153,0.525233762,1.610351859,0.242025982,0.455729697,0.291364634
27.471427,589.6855,0.614861002,0.586438754,0.498406697,1.726004027,0.226728312,0.476835979,0.284969956
27.471427,660.23,0.614362273,0.555381843,0.470748405,1.823326411,0.209997485,0.496386946,0.280593803
27.471427,730.7745,0.615729864,0.529493577,0.445676355,1.894804429,0.197881541,0.509938864,0.277749349
27.471427,95.874,0.599752369,0.898524263,0.820799429,0.242418125,0.494628875,0.096803501,0.404732256
27.471427,166.4185,0.595776926,0.878058259,0.793414287,0.369393144,0.458528729,0.142528031,0.394291199
27.471427,236.963,0.596525362,0.834282361,0.74254264,0.61862243,0.402984127,0.222074177,0.368355862
27.471427,307.5075,0.595862195,0.777643329,0.683075349,0.88356484,0.347462565,0.297546303,0.345958426
27.471427,378.052,0.595867933,0.713463344,0.617175927,1.085372364,0.302638433,0.352937656,0.333925203
27.471427,448.5965,0.595826715,0.65384006,0.560095962,1.27973367,0.264454267,0.4015588,0.321955208
27.471427,519.141,0.595280454,0.597968481,0.506049394,1.421473008,0.233685969,0.436618485,0.315748719
27.471427,589.6855,0.595611537,0.581115511,0.492859381,1.515904453,0.222440566,0.454508859,0.308342476
27.471427,660.23,0.595163029,0.54436645,0.458288632,1.579838927,0.205793997,0.471327425,0.307115067
27.471427,730.7745,0.595656722,0.518105142,0.433011388,1.620996385,0.19391062,0.483085983,0.306743272
42.49572,95.874,0.577788101,0.780844021,0.666303332,0.25079655,0.415398293,0.112004037,0.455035318
42.49572,166.4185,0.57394465,0.737773178,0.622717502,0.339341308,0.377896934,0.150331678,0.450657389
42.49572,236.963,0.574308399,0.695670656,0.578201567,0.431445865,0.34516462,0.186639284,0.443383783
42.49572,307.5075,0.572802667,0.657829604,0.542351403,0.51005844,0.316773446,0.21773848,0.438770993
42.49572,378.052,0.572763477,0.618835587,0.501311005,0.548392834,0.29378951,0.235917075,0.442363197
42.49572,448.5965,0.573162218,0.581361254,0.466894386,0.597153297,0.272258648,0.25518593,0.442046664
42.49572,519.141,0.573016939,0.570925223,0.454949686,0.593593781,0.267363095,0.255041465,0.446429564
42.49572,589.6855,0.573198816,0.569743516,0.455351892,0.623770654,0.264629327,0.263853022,0.439973694
42.49572,660.23,0.573057297,0.544039932,0.429126131,0.606457959,0.253547255,0.262829966,0.451233784
42.49572,730.7745,0.572956586,0.547445038,0.433602737,0.620501333,0.253989983,0.265709284,0.446735265
42.49572,871.8635,0.572633693,0.494453245,0.38288979,0.614040908,0.229597375,0.271105986,0.463702638
42.49572,95.874,0.600557842,0.809934754,0.696490137,0.269130063,0.445953933,0.113526955,0.421783967
42.49572,166.4185,0.599451683,0.788399566,0.676929421,0.376459252,0.419381967,0.152899666,0.40881383
42.49572,236.963,0.601269889,0.746010165,0.628033152,0.467382975,0.385811956,0.188228267,0.405199365
42.49572,307.5075,0.602829648,0.698869163,0.577208983,0.561815021,0.353238559,0.222777946,0.401824868
42.49572,378.052,0.603885071,0.665784531,0.544231245,0.628222677,0.330019414,0.24571615,0.399038281
42.49572,448.5965,0.603528295,0.630387321,0.510610715,0.707693605,0.304730405,0.273624039,0.395037692
42.49572,519.141,0.604302374,0.607938111,0.488140248,0.74304642,0.292163374,0.285690515,0.394850692
42.49572,589.6855,0.604016614,0.608891701,0.492156621,0.789492384,0.288033604,0.296518705,0.386809985
42.49572,660.23,0.603226921,0.573817982,0.45634394,0.798485284,0.270835109,0.303364894,0.394325004
42.49572,730.7745,0.603344289,0.569282423,0.453329582,0.82057441,0.266242781,0.310434697,0.391888571
42.49572,871.8635,0.603054263,0.513310206,0.398284418,0.817518653,0.240880644,0.31884673,0.40640269
42.49572,95.874,0.629578276,0.872760854,0.766032032,0.210618937,0.514052068,0.08259242,0.400467375
42.49572,166.4185,0.627279215,0.829947928,0.712921052,0.305757559,0.473653792,0.120005749,0.40009215
42.49572,236.963,0.626789938,0.777341717,0.648500167,0.426905628,0.427495896,0.165184825,0.397111062
42.49572,307.5075,0.628233591,0.724140628,0.590072852,0.542228788,0.386730823,0.206224981,0.393033765
42.49572,378.052,0.629217078,0.66454417,0.528310695,0.626758448,0.347117496,0.238656393,0.39531557
42.49572,448.5965,0.629881237,0.611709826,0.476594538,0.727424971,0.311475894,0.273236842,0.392487273
42.49572,519.141,0.630444785,0.577133323,0.445141121,0.783877004,0.290665026,0.292385448,0.39195622
42.49572,589.6855,0.629339803,0.54879494,0.418570857,0.820982792,0.272959385,0.305941251,0.393685919
42.49572,660.23,0.631094307,0.533564183,0.405350363,0.851840924,0.264021506,0.315510007,0.391624781
42.49572,730.7745,0.630888949,0.509717574,0.384883777,0.887277556,0.250064447,0.32799062,0.39150358
42.49572,871.8635,0.63081975,0.461478313,0.340862514,0.897111883,0.226080115,0.338468063,0.401938258
42.49572,95.874,0.635507375,0.896370542,0.804939791,0.230113459,0.53005115,0.086091433,0.381265747
42.49572,166.4185,0.63392788,0.864036571,0.761905147,0.349884169,0.49095507,0.128513037,0.376157646
42.49572,236.963,0.635103405,0.798990846,0.679368449,0.540396655,0.430538444,0.193705201,0.36887245
42.49572,307.5075,0.636443047,0.735635616,0.609364474,0.717505669,0.379289481,0.249827732,0.360462986
42.49572,378.052,0.637564348,0.662817715,0.531511544,0.857654394,0.330388159,0.295389113,0.35941091
42.49572,448.5965,0.638461318,0.611580477,0.486171339,1.02124322,0.293668799,0.33879869,0.348451796
42.49572,519.141,0.639277395,0.556118691,0.433836094,1.126224612,0.261264582,0.36967353,0.346449332
42.49572,589.6855,0.63976295,0.529302531,0.411005873,1.201302231,0.24518545,0.387151526,0.342062596
42.49572,660.23,0.63951631,0.497831423,0.383100151,1.242649044,0.227848149,0.401017911,0.343061277
42.49572,730.7745,0.640183302,0.493050654,0.381328379,1.307846713,0.223217473,0.411772992,0.335832382
42.49572,871.8635,0.640647908,0.414661562,0.309823504,1.349321258,0.186747281,0.434212345,0.345372321
30.74021,95.874,0.55621594,0.898167066,0.826541134,0.131428651,0.475015907,0.059157271,0.468406592
30.74021,166.4185,0.554310632,0.85366347,0.761713126,0.245307874,0.430044249,0.108837554,0.459451497
30.74021,236.963,0.553917776,0.781649494,0.677006475,0.463839449,0.363138904,0.195124217,0.437395669
30.74021,307.5075,0.55233626,0.701984436,0.59501204,0.686469285,0.302692884,0.274579135,0.416284038
30.74021,378.052,0.551273094,0.637240346,0.536186798,0.886709826,0.258485888,0.335903498,0.39528336
30.74021,448.5965,0.551639527,0.574081183,0.47733563,1.032721824,0.225121184,0.379414232,0.383939509
30.74021,519.141,0.551971751,0.537635144,0.445819096,1.150752485,0.203924056,0.409911986,0.372443361
30.74021,589.6855,0.551678576,0.500664598,0.413058724,1.2362367,0.18640628,0.432760256,0.366347924
30.74021,660.23,0.551927493,0.485782832,0.401196697,1.299959343,0.178137888,0.446169005,0.359831657
30.74021,730.7745,0.552281881,0.455014396,0.373668051,1.351303354,0.166236967,0.459643593,0.35747401
30.74021,871.8635,0.551490457,0.432676432,0.3549335,1.411753862,0.155250136,0.473099508,0.352823075
30.74021,1012.9525,0.551194016,0.420592531,0.344401602,1.436525739,0.150826795,0.477350583,0.351302202
30.74021,1154.0415,0.552869064,0.410325595,0.335273817,1.465302063,0.146270149,0.482292193,0.34868671
30.74021,1295.1305,0.552554778,0.386696219,0.312934508,1.47078612,0.138019466,0.486751395,0.351515356
30.74021,95.874,0.5010964,0.88482948,0.819242212,0.114060018,0.421335082,0.057037436,0.528154283
30.74021,166.4185,0.503224114,0.840635778,0.755477967,0.171381052,0.392744538,0.085642986,0.521052632
30.74021,236.963,0.501998083,0.764007153,0.661473277,0.285715733,0.340430646,0.140820589,0.515756983
30.74021,307.5075,0.501461508,0.678919229,0.570964089,0.416595231,0.288415849,0.200337697,0.505098778
30.74021,378.052,0.501817361,0.612319306,0.50594844,0.532299095,0.250027474,0.248834247,0.492212135
30.74021,448.5965,0.501279327,0.553660378,0.451804223,0.625651559,0.219266354,0.286172493,0.482770524
30.74021,519.141,0.50220099,0.509246624,0.41268432,0.707650728,0.197555699,0.315961025,0.47256409
30.74021,589.6855,0.502940397,0.469055966,0.378445285,0.774325101,0.179453138,0.33990244,0.465182903
30.74021,660.23,0.503224676,0.455163477,0.367955833,0.827945474,0.17117599,0.356128781,0.455980942
30.74021,730.7745,0.50301379,0.415017786,0.332230368,0.872026461,0.154740829,0.372788985,0.454156207
30.74021,871.8635,0.504417244,0.396172945,0.316435458,0.932764079,0.145856016,0.389056064,0.444820435
30.74021,1012.9525,0.505731112,0.379778542,0.303757896,0.970492816,0.139337504,0.39927703,0.439775883
30.74021,1154.0415,0.504648341,0.372638383,0.297936356,0.986191852,0.13576832,0.402805997,0.438172778
30.74021,1295.1305,0.505777829,0.361838024,0.288891997,1.00790442,0.132273732,0.407087231,0.43542076
30.74021,95.874,0.492620368,0.873472756,0.806121634,0.154533423,0.402093389,0.076036894,0.530345711
30.74021,166.4185,0.490399854,0.792516987,0.704552841,0.288070282,0.344853713,0.139199471,0.517447166
30.74021,236.963,0.489492299,0.69783906,0.603873088,0.497810911,0.280827633,0.224801876,0.488566753
30.74021,307.5075,0.489026286,0.607879921,0.516475003,0.683298628,0.230643011,0.292727072,0.464892007
30.74021,378.052,0.490351056,0.538036398,0.451716386,0.812225574,0.197915134,0.335047918,0.449903972
30.74021,448.5965,0.491962131,0.491712392,0.409196965,0.909893459,0.176434121,0.364898759,0.437821156
30.74021,519.141,0.493076226,0.468621961,0.390048946,0.983863892,0.165952865,0.383693855,0.427140476
30.74021,589.6855,0.494554578,0.437982195,0.362083964,1.019645953,0.154454956,0.394599363,0.425079495
30.74021,660.23,0.492806328,0.432014971,0.357740975,1.051333354,0.150624816,0.400872042,0.420339143
30.74021,730.7745,0.494521564,0.414146922,0.340737516,1.089537584,0.143163573,0.411550847,0.416245891
30.74021,871.8635,0.495270431,0.411446968,0.339722062,1.109064397,0.141908034,0.412476839,0.413074751
30.74021,1012.9525,0.493903707,0.394909384,0.324738025,1.123540757,0.136385406,0.41644534,0.413213665
30.74021,1154.0415,0.496667725,0.397702866,0.326896587,1.12968717,0.137696564,0.414616577,0.411357761
30.74021,1295.1305,0.495917355,0.389781644,0.318905665,1.131263216,0.135174636,0.415512797,0.412395549
30.74021,95.874,0.522776789,0.880561606,0.804990872,0.135983745,0.434052017,0.063947093,0.521871175
30.74021,166.4185,0.520123548,0.831724324,0.738718998,0.209514694,0.395481421,0.100745769,0.516744762
30.74021,236.963,0.520787443,0.754773489,0.648849065,0.353846841,0.340714945,0.166205374,0.501503107
30.74021,307.5075,0.521526393,0.674232503,0.565221259,0.497161404,0.290787569,0.227186528,0.486529542
30.74021,378.052,0.521865357,0.605334669,0.498989839,0.612837098,0.252701988,0.273614187,0.474879825
30.74021,448.5965,0.522495661,0.551679293,0.449601107,0.702289019,0.225052979,0.307252312,0.465504137
30.74021,519.141,0.52242674,0.513474356,0.416187985,0.775445123,0.205737851,0.333005731,0.457083357
30.74021,589.6855,0.523611108,0.469508197,0.376423694,0.837479844,0.185908753,0.355556677,0.452006348
30.74021,660.23,0.522956063,0.46016796,0.37057967,0.879222864,0.180158032,0.367317678,0.444933448
30.74021,730.7745,0.524093495,0.442252016,0.354641345,0.918239211,0.171767833,0.378722068,0.440068951
30.74021,871.8635,0.525203066,0.413917031,0.330777333,0.966351874,0.159836569,0.393299641,0.435348736
30.74021,1012.9525,0.52552759,0.400496012,0.318872325,0.994788885,0.153538764,0.402310115,0.432368559
30.74021,1154.0415,0.523706168,0.39382216,0.312839101,1.002954358,0.149709745,0.403415337,0.43219036
30.74021,1295.1305,0.524712861,0.384121223,0.304928157,1.015329001,0.146072543,0.406982758,0.431312779
54.7298,95.874,0.431813811,0.845650825,0.783824172,0.110446872,0.347708035,0.061680128,0.604389442
54.7298,166.4185,0.431264641,0.817464535,0.748105435,0.154425555,0.329311588,0.084737947,0.594038295
54.7298,236.963,0.434013566,0.742435127,0.660667694,0.238856967,0.291212347,0.128614409,0.583064419
54.7298,307.5075,0.435194442,0.677457073,0.590940806,0.320340067,0.258512177,0.168024388,0.570972019
54.7298,378.052,0.437508768,0.60250347,0.513320161,0.39429892,0.224988566,0.203682553,0.563940848
54.7298,448.5965,0.438773629,0.561264643,0.475264758,0.457469947,0.20541323,0.231307539,0.552342237
54.7298,519.141,0.439239004,0.510313894,0.425871798,0.497982604,0.184478411,0.250662856,0.55107569
54.7298,589.6855,0.441725731,0.461828104,0.38033141,0.536890655,0.165122755,0.269287544,0.54844387
54.7298,660.23,0.442650438,0.44130317,0.361366182,0.560903794,0.156688926,0.279052755,0.545467138
54.7298,730.7745,0.443802403,0.420308966,0.343332462,0.583717777,0.148463215,0.288600779,0.542211039
54.7298,871.8635,0.44420728,0.386940743,0.31279723,0.606482047,0.136101292,0.298279166,0.542462805
54.7298,1012.9525,0.4441314,0.377323277,0.305873155,0.619847765,0.131609041,0.30369226,0.53987701
54.7298,1295.1305,0.445684156,0.36068185,0.290184292,0.63333198,0.125506144,0.30780011,0.539132134
54.7298,95.874,0.488154529,0.777832472,0.68811841,0.181516509,0.35271779,0.094623005,0.548066261
54.7298,166.4185,0.481951372,0.746817156,0.654765124,0.232056543,0.327467703,0.11963277,0.545719218
54.7298,236.963,0.481926861,0.690216034,0.593808603,0.300874105,0.294245815,0.153455648,0.541286913
54.7298,307.5075,0.481679009,0.641755635,0.544600442,0.355948711,0.267956704,0.179949968,0.537926146
54.7298,378.052,0.481895917,0.60533221,0.508229796,0.385964223,0.249953995,0.193801685,0.538727974
54.7298,448.5965,0.481277778,0.5896927,0.496147696,0.423010551,0.239508022,0.209069031,0.531078082
54.7298,519.141,0.482681844,0.566775158,0.472225973,0.427644945,0.230802688,0.212068283,0.535280278
54.7298,589.6855,0.482992586,0.516309767,0.423192168,0.448849239,0.209104917,0.224230869,0.542249562
54.7298,660.23,0.483530404,0.512637432,0.420010516,0.455553997,0.207203661,0.226250869,0.540832669
54.7298,730.7745,0.484999864,0.495699271,0.402674904,0.47007368,0.199217762,0.232595753,0.540554686
54.7298,871.8635,0.486542169,0.464310876,0.374360639,0.472223029,0.187419417,0.237104657,0.547370242
54.7298,1012.9525,0.485894384,0.454894067,0.364099477,0.473146172,0.183522151,0.237552608,0.550764339
54.7298,1295.1305,0.488132073,0.445571099,0.353904607,0.458450628,0.181277643,0.23063427,0.557204447
54.7298,95.874,0.59230887,0.875970764,0.78830921,0.22563224,0.479469033,0.092328088,0.420096802
54.7298,166.4185,0.587163022,0.852854141,0.762005038,0.307024535,0.449442178,0.125899905,0.417598321
54.7298,236.963,0.586071977,0.82169811,0.725663264,0.442583396,0.412037312,0.17581468,0.405161834
54.7298,307.5075,0.586327877,0.774710403,0.670898835,0.579268501,0.371708896,0.223925211,0.395198514
54.7298,378.052,0.584199043,0.720049423,0.61365669,0.704587278,0.331448117,0.267895363,0.389229118
54.7298,448.5965,0.584523485,0.671958209,0.565415523,0.818218214,0.299930946,0.305170941,0.382102184
54.7298,519.141,0.585352145,0.623658063,0.517003694,0.907378922,0.272085745,0.335473285,0.379008317
54.7298,589.6855,0.585188028,0.577727856,0.474010676,0.982061555,0.246825753,0.360899905,0.377016259
54.7298,660.23,0.585488535,0.568290678,0.467422181,1.038988592,0.239641089,0.374291857,0.370207876
54.7298,730.7745,0.585369795,0.533297508,0.434359645,1.083248195,0.222106304,0.390021206,0.370507079
54.7298,871.8635,0.584564004,0.486077192,0.392127496,1.173465434,0.197542396,0.416868493,0.366486526
54.7298,1012.9525,0.585516426,0.487994655,0.395599058,1.217554882,0.196699525,0.423864262,0.359895458
54.7298,1295.1305,0.584825433,0.452653078,0.364998734,1.295280753,0.179048314,0.443119328,0.355526334
54.7298,95.874,0.536368299,0.843052749,0.753398597,0.169046211,0.422868273,0.079930578,0.503106918
54.7298,166.4185,0.525616459,0.818980089,0.72759399,0.235920701,0.391470175,0.11205431,0.499691548
54.7298,236.963,0.522677626,0.75547539,0.65710152,0.362440504,0.343461053,0.168896936,0.487372664
54.7298,307.5075,0.524217077,0.679640428,0.576418113,0.460972438,0.299951832,0.212667464,0.482622566
54.7298,378.052,0.525725157,0.630850714,0.527440897,0.537381382,0.27207598,0.244270897,0.476089253
54.7298,448.5965,0.527837204,0.600688322,0.49967266,0.601689838,0.255664679,0.267675936,0.467447855
54.7298,519.141,0.528695239,0.563506461,0.463458034,0.644603342,0.237399834,0.285267291,0.465848438
54.7298,589.6855,0.529359989,0.526260682,0.42841933,0.671388632,0.22041066,0.298263093,0.468069524
54.7298,660.23,0.529876845,0.516392373,0.419105246,0.693362029,0.215315996,0.304438146,0.465077376
54.7298,730.7745,0.530810795,0.48884414,0.392710067,0.70621037,0.203700962,0.312510161,0.468616145
54.7298,871.8635,0.53071464,0.45373621,0.360815467,0.735457989,0.186489615,0.324600655,0.46946403
54.7298,1012.9525,0.531163325,0.44682093,0.355483032,0.744839256,0.184060901,0.328089349,0.46870131
54.7298,1295.1305,0.531107146,0.432727283,0.342024201,0.746986902,0.177235451,0.329206124,0.47161233
50.20261,95.874,0.707664383,0.814994795,0.599486263,0.139652767,0.550813176,0.05445685,0.352285979
50.20261,166.4185,0.703727915,0.788082005,0.57215979,0.202375696,0.518657461,0.078868956,0.362577173
50.20261,236.963,0.689134154,0.743846395,0.539445151,0.305821843,0.46468613,0.121008361,0.378123855
50.20261,307.5075,0.683750789,0.697196791,0.504969692,0.429119486,0.417226088,0.168389159,0.378420427
50.20261,378.052,0.678504838,0.648547919,0.467727568,0.54146416,0.373669261,0.211288818,0.380076582
50.20261,448.5965,0.676627341,0.614118112,0.44257671,0.626057,0.344951013,0.242044056,0.37772466
50.20261,519.141,0.67373081,0.568705909,0.408813714,0.708915851,0.31030214,0.274741673,0.378724117
50.20261,589.6855,0.672321233,0.540893172,0.387380783,0.771503822,0.289812458,0.29733622,0.377478029
50.20261,660.23,0.669636544,0.511010819,0.364025936,0.811157415,0.270153319,0.313228135,0.380620203
50.20261,730.7745,0.669977096,0.498044803,0.35457316,0.854476736,0.260823993,0.326475954,0.37724036
50.20261,871.8635,0.668850761,0.465406281,0.329916119,0.904034066,0.2395186,0.346009533,0.379234593
50.20261,1012.9525,0.665145332,0.441718127,0.313296105,0.927555236,0.223963777,0.356547995,0.382437847
50.20261,1154.0415,0.665114313,0.432281199,0.305323451,0.945792232,0.217885197,0.362737072,0.382501575
50.20261,1295.1305,0.665286768,0.407904749,0.28548932,0.948396544,0.205743626,0.36896752,0.388277395
50.20261,1436.2195,0.665233319,0.409020676,0.287195186,0.953716131,0.206417351,0.369310492,0.387085509
50.20261,95.874,0.557354002,0.853811618,0.763439947,0.174894131,0.447335243,0.078811053,0.473924542
50.20261,166.4185,0.554251335,0.833415135,0.738878106,0.233790213,0.424180781,0.104078949,0.46987746
50.20261,236.963,0.552186759,0.802400671,0.70447337,0.330404081,0.392781761,0.143358482,0.457696739
50.20261,307.5075,0.550804548,0.753348298,0.652288,0.44864458,0.353902471,0.189782488,0.446655786
50.20261,378.052,0.551573882,0.71208271,0.607591078,0.543280084,0.325069025,0.224427674,0.437639593
50.20261,448.5965,0.552376343,0.672789215,0.568511753,0.62536701,0.299678304,0.253833473,0.430706172
50.20261,519.141,0.55271697,0.633991156,0.529066988,0.700662821,0.276090609,0.280507511,0.425359787
50.20261,589.6855,0.553293821,0.608176267,0.505653012,0.757248855,0.261448948,0.298388488,0.41998678
50.20261,660.23,0.555402669,0.571201737,0.468000292,0.794457117,0.243704924,0.313767679,0.420698776
50.20261,730.7745,0.554665722,0.555026147,0.454435167,0.838709023,0.23355225,0.326406536,0.41607679
50.20261,871.8635,0.55785482,0.516007283,0.417752694,0.891649058,0.215499733,0.34537061,0.413585709
50.20261,1012.9525,0.556778487,0.491810236,0.39501483,0.91086911,0.203551281,0.352948928,0.41571049
50.20261,1154.0415,0.557197813,0.482356228,0.387378254,0.937621146,0.198826394,0.359509764,0.412686817
50.20261,1295.1305,0.556063358,0.449952186,0.357022587,0.939175413,0.184025993,0.365327321,0.419298479
50.20261,1436.2195,0.555420986,0.451039955,0.358542382,0.945537804,0.184817933,0.365239285,0.418120531
50.20261,95.874,0.612039588,0.839306272,0.724447834,0.185776354,0.485052735,0.077384984,0.424664227
50.20261,166.4185,0.604801448,0.816585581,0.700291256,0.228400529,0.459660963,0.096414522,0.432547391
50.20261,236.963,0.601296189,0.777539044,0.654006097,0.317059714,0.421991598,0.132466493,0.432056844
50.20261,307.5075,0.598401832,0.742563593,0.619077736,0.413570647,0.388640718,0.169005957,0.425959911
50.20261,378.052,0.595621585,0.694810343,0.570110024,0.48535955,0.353948297,0.199437213,0.428019309
50.20261,448.5965,0.59338357,0.662542416,0.53933817,0.545660077,0.329749481,0.223121953,0.426709458
50.20261,519.141,0.591038893,0.628705286,0.506578523,0.586805119,0.307735708,0.24042682,0.428781577
50.20261,589.6855,0.590990569,0.601782483,0.481095075,0.626570074,0.291168701,0.256289634,0.428271706
50.20261,660.23,0.588804929,0.574687047,0.455756559,0.657627247,0.274410686,0.269929066,0.430238615
50.20261,730.7745,0.589509847,0.563863423,0.445891008,0.684774788,0.267509687,0.278244533,0.427554991
50.20261,871.8635,0.587753104,0.537982296,0.424184245,0.719006728,0.251096486,0.292727661,0.42783593
50.20261,1012.9525,0.586468548,0.517629234,0.405557296,0.738734099,0.240284543,0.300718568,0.429311541
50.20261,1154.0415,0.585336232,0.482444324,0.371848237,0.743242532,0.222742752,0.307349366,0.438280024
50.20261,1295.1305,0.585591459,0.462901364,0.35382794,0.75487742,0.213338085,0.313995777,0.440970167
50.20261,1436.2195,0.584334531,0.477492715,0.369194836,0.75809913,0.218589319,0.311697382,0.43634542
50.20261,95.874,0.641103,0.882099187,0.779896011,0.21675691,0.530515324,0.080842689,0.387172059
50.20261,166.4185,0.630572867,0.865597845,0.761728923,0.304726692,0.495335757,0.114397028,0.395360582
50.20261,236.963,0.627320919,0.82509375,0.712787577,0.453453602,0.44788816,0.166858483,0.386525856
50.20261,307.5075,0.625424804,0.779419825,0.664276586,0.625786491,0.402080415,0.222821246,0.37348351
50.20261,378.052,0.625496939,0.731368656,0.615167859,0.779236182,0.361946635,0.270348587,0.36286569
50.20261,448.5965,0.62506996,0.68449346,0.567739484,0.9050946,0.327950973,0.307917567,0.356222813
50.20261,519.141,0.625436698,0.646863193,0.531895543,0.997307328,0.303622944,0.33493168,0.351366038
50.20261,589.6855,0.625061217,0.618153934,0.504700916,1.073479581,0.284910578,0.356115484,0.347122222
50.20261,660.23,0.625065974,0.581504675,0.470713629,1.158248218,0.263053402,0.379536011,0.34340919
50.20261,730.7745,0.625860216,0.565401495,0.457145429,1.219035209,0.252368698,0.393637965,0.338542199
50.20261,871.8635,0.626477437,0.523176139,0.419166848,1.316810701,0.229708562,0.419439242,0.334313968
50.20261,1012.9525,0.625806631,0.50656618,0.404846495,1.364711433,0.219580762,0.428860215,0.331599514
50.20261,1154.0415,0.626142413,0.477274084,0.376352996,1.387918054,0.206310818,0.437879697,0.334010498
50.20261,1295.1305,0.626029951,0.464260139,0.365544397,1.4080964,0.199996949,0.443041643,0.333410035
50.20261,1436.2195,0.625270433,0.459796815,0.361990301,1.432431257,0.196285424,0.44745432,0.331852867